wavelength[μm],reflectance
1.00135,NaN
1.00790,NaN
1.01445,0.04965
1.02100,0.04932
1.02755,0.04749
1.03410,0.04754
1.04065,0.04708
1.04720,0.04673
1.05375,0.04695
1.06030,0.04619
1.06685,0.0465
1.07341,0.04618
1.07996,0.04585
1.08651,0.04616
1.09307,0.04612
1.09962,0.04631
1.10617,0.0464
1.11273,0.04626
1.11928,0.04608
1.12584,0.04641
1.13239,0.04622
1.13895,0.04631
1.14551,0.0462
1.15206,0.04607
1.15862,0.04622
1.16518,0.04608
1.17173,0.0462
1.17829,0.04621
1.18485,0.04625
1.19141,0.04612
1.19797,0.04545
1.20453,0.04477
1.21109,0.04495
1.21765,0.04499
1.22421,0.04508
1.23077,0.04528
1.23733,0.04552
1.24389,0.04584
1.25045,0.04592
1.25701,0.04582
1.26357,0.0457
1.27014,0.04565
1.27670,0.04575
1.28326,0.04487
1.28983,0.04552
1.29639,0.0449
1.30295,0.04573
1.30952,0.04514
1.31608,0.04495
1.32265,0.04561
1.32921,0.04543
1.33578,0.04502
1.34234,0.04558
1.34891,0.04514
1.35548,0.04552
1.36205,0.04512
1.36861,0.04504
1.37518,0.04494
1.38175,0.04498
1.38832,0.04483
1.39489,0.04479
1.40145,0.04508
1.40802,0.04532
1.41459,0.04534
1.42116,0.04555
1.42773,0.04411
1.43431,0.04169
1.44088,0.04184
1.44745,0.04347
1.45402,0.04465
1.46059,0.04534
1.46716,0.04524
1.47374,0.04468
1.48031,0.04479
1.48688,0.04426
1.49346,0.04486
1.50003,0.04444
1.50661,0.04475
1.51318,0.04523
1.51976,0.04488
1.52633,0.04402
1.53291,0.04375
1.53948,0.04427
1.54606,0.04492
1.55264,0.04506
1.55921,0.04479
1.56579,0.04338
1.57237,0.04194
1.57895,0.04261
1.58552,0.04387
1.59210,0.04357
1.59868,0.04257
1.60526,0.04199
1.61184,0.04227
1.61842,0.0437
1.62500,0.04364
1.63158,0.04397
1.63816,0.04392
1.64474,0.04393
1.65133,0.04485
1.65791,0.04129
1.66449,0.04245
1.67107,0.04323
1.67766,0.04305
1.68424,0.04309
1.69082,0.04316
1.69741,0.04354
1.70399,0.04381
1.71058,0.04384
1.71716,0.04358
1.72375,0.04375
1.73033,0.04347
1.73692,0.04308
1.74351,0.04307
1.75009,0.04307
1.75668,0.04316
1.76327,0.04306
1.76985,0.04272
1.77644,0.04287
1.78303,0.04256
1.78962,0.04252
1.79621,0.04249
1.80280,0.04251
1.80939,0.04218
1.81598,0.04214
1.82257,0.04145
1.82916,0.04188
1.83575,0.04182
1.84234,0.04162
1.84893,0.04133
1.85552,0.04155
1.86212,0.04218
1.86871,0.04081
1.87530,0.03993
1.88190,0.03949
1.88849,0.04011
1.89508,0.04053
1.90168,0.04063
1.90827,0.04058
1.91487,0.04063
1.92146,0.04064
1.92806,0.04086
1.93465,0.03969
1.94125,0.03736
1.94785,0.0325
1.95444,0.02911
1.96104,0.02906
1.96764,0.03158
1.97424,0.03503
1.98084,0.03674
1.98743,0.03609
1.99403,0.03161
2.00063,0.02346
2.00723,0.02033
2.01383,0.02259
2.02043,0.02761
2.02703,0.03176
2.03363,0.03337
2.04024,0.0329
2.04684,0.03145
2.05344,0.02937
2.06004,0.02971
2.06664,0.03073
2.07325,0.03203
2.07985,0.03344
2.08645,0.03453
2.09306,0.03567
2.09966,0.03661
2.10627,0.03705
2.11287,0.03722
2.11948,0.03793
2.12608,0.03844
2.13269,0.03872
2.13930,0.03866
2.14590,0.03796
2.15251,0.03806
2.15912,0.03816
2.16572,0.03836
2.17233,0.03829
2.17894,0.03871
2.18555,0.03863
2.19216,0.03885
2.19877,0.03893
2.20538,0.03886
2.21199,0.03882
2.21860,0.03871
2.22521,0.03885
2.23182,0.03885
2.23843,0.03788
2.24504,0.03851
2.25165,0.03774
2.25827,0.0381
2.26488,0.03777
2.27149,0.03905
2.27810,0.0381
2.28472,0.03832
2.29133,0.03827
2.29795,0.03819
2.30456,0.03825
2.31118,0.03774
2.31779,0.0379
2.32441,0.03742
2.33102,0.03728
2.33764,0.03722
2.34426,0.03678
2.35087,0.03733
2.35749,0.03696
2.36411,0.03711
2.37072,0.03717
2.37734,0.03666
2.38396,0.03634
2.39058,0.03611
2.39720,0.03655
2.40382,0.03669
2.41044,0.03649
2.41706,0.03668
2.42368,0.0368
2.43030,0.03704
2.43692,0.03693
2.44354,0.03667
2.45017,0.03637
2.45679,0.03664
2.46341,0.03588
2.47003,0.03625
2.47666,0.03586
2.48328,0.03561
2.48990,0.03533
2.49653,0.03561
2.50312,0.03564
2.50972,0.03516
2.51632,0.03502
2.52292,0.03498
2.52951,0.03441
2.53611,0.03483
2.54271,0.03439
2.54931,0.03397
2.55591,0.03428
2.56251,0.03383
2.56911,0.03333
2.57571,0.03331
2.58231,0.03304
2.58891,0.03186
2.59551,0.03159
2.60212,0.0317
2.60872,0.03141
2.61532,0.03042
2.62192,0.03045
2.62853,0.03099
2.63513,0.03056
2.64174,0.03054
2.64834,0.02857
2.65495,0.02551
2.66155,0.01898
2.66816,0.00981
2.67476,0.00434
2.68137,0.00298
2.68798,0.00275
2.69458,0.00813
2.70119,0.04269
2.76068,NaN
2.76729,NaN
2.77390,NaN
2.78052,NaN
2.78713,NaN
2.79374,NaN
2.80035,NaN
2.80697,NaN
2.81358,0.00198
2.82020,0.00256
2.82681,0.00277
2.83343,0.00295
2.84004,0.00339
2.84666,0.00388
2.85328,0.00435
2.85989,NaN
2.86651,0.00523
2.87313,0.00565
2.87975,0.00574
2.88636,NaN
2.89298,0.00481
2.89960,0.00513
2.90622,0.00565
2.91284,0.00595
2.91946,0.00597
2.92608,0.00606
2.93270,0.00618
2.93932,0.00654
2.94595,0.00699
2.95257,0.00698
2.95919,0.00678
2.96581,0.00677
2.97244,0.00696
2.97906,0.00726
2.98568,0.00731
2.99231,0.00746
2.99893,0.00774
3.00556,0.00787
3.01218,0.00776
3.01881,0.00785
3.02544,0.00809
3.03206,0.00832
3.03869,0.00848
3.04532,0.00884
3.05195,0.00897
3.05857,0.00907
3.06520,0.00938
3.07183,0.00952
3.07846,0.00954
3.08509,0.00938
3.09172,0.0092
3.09835,0.00924
3.10498,0.00922
3.11161,0.00916
3.11825,0.00909
3.12488,0.00919
3.13151,0.00935
3.13814,0.00953
3.14478,0.0095
3.15141,0.00951
3.15804,0.00969
3.16468,0.01012
3.17131,0.01084
3.17795,0.01128
3.18458,0.01129
3.19122,0.01144
3.19785,0.0121
3.20449,0.01322
3.21113,0.01378
3.21776,0.01426
3.22440,0.0145
3.23104,0.01389
3.23768,0.01324
3.24432,0.01318
3.25096,0.01354
3.25760,0.01413
3.26424,0.01469
3.27088,0.01539
3.27752,0.01607
3.28416,0.01686
3.29080,0.01732
3.29744,0.01714
3.30408,0.01727
3.31073,0.01751
3.31737,0.01752
3.32401,0.01779
3.33066,0.01826
3.33730,0.01869
3.34395,0.01913
3.35059,0.01982
3.35724,0.02047
3.36388,0.02078
3.37053,0.0209
3.37717,0.02149
3.38382,0.02207
3.39047,0.02237
3.39712,0.02342
3.40376,0.02442
3.41041,0.02527
3.41706,0.02568
3.42371,0.02597
3.43036,0.02653
3.43701,0.02818
3.44366,0.02859
3.45031,0.02759
3.45696,0.02859
3.46361,0.02875
3.47026,0.02916
3.47692,0.02991
3.48357,0.03034
3.49022,0.0301
3.49687,0.03012
3.50353,0.03126
3.51018,0.032
3.51684,0.03288
3.52349,0.03412
3.53015,0.03554
3.53680,0.03635
3.54346,0.03678
3.55011,0.03717
3.55677,0.03772
3.56343,0.03813
3.57008,0.0388
3.57674,0.03969
3.58340,0.04054
3.59006,0.04165
3.59672,0.04263
3.60338,0.04241
3.61004,0.0422
3.61670,0.04242
3.62336,0.04293
3.63002,0.04317
3.63668,0.04416
3.64334,0.04868
3.65000,0.04755
3.65667,0.04759
3.66333,0.04728
3.66999,0.04645
3.67665,0.04578
3.68332,0.04615
3.68998,0.04683
3.69665,0.04688
3.70331,0.04666
3.70998,0.04712
3.71664,0.04717
3.72331,0.04605
3.72998,0.04632
3.73664,0.04821
3.74331,0.04999
3.74998,0.05042
3.75665,0.04902
3.76331,0.04758
3.76998,0.04834
3.77665,0.04986
3.78332,0.05103
3.78999,0.05133
3.79666,0.05147
3.80333,0.05074
3.81000,0.04946
3.81667,0.04809
3.82335,0.04777
3.83002,0.04979
3.83669,0.05216
3.84336,0.05183
3.85004,0.05022
3.85671,0.04953
3.86339,0.04976
3.87006,0.04976
3.87673,0.0505
3.88341,0.0515
3.89008,0.05227
3.89676,0.05287
3.90344,0.05416
3.91011,0.05505
3.91679,0.05382
3.92347,0.06155
3.93015,NaN
3.93682,NaN
